    # tiltAngle       # Jtheta # Total Energy
 # ------------  -------------   -------------
              0              0              0
            0.5      0.0432744        0.10458
              1       0.102464       0.203463
            1.5       0.171975       0.296963
              2       0.250429       0.385376
            2.5       0.337459       0.468977
              3       0.433323       0.548028
            3.5       0.502413       0.598243
              4        0.51727       0.608397
            4.5       0.531695       0.618051
              5       0.545684       0.627226
            5.5       0.559232       0.635941
              6        0.57233       0.644211
            6.5        0.58498       0.652055
              7       0.597175       0.659488
            7.5       0.608914       0.666525
              8        0.62019       0.673178
            8.5       0.631006       0.679463
              9       0.641353       0.685389
            9.5       0.651234        0.69097
             10       0.660643       0.696215
           10.5       0.669579       0.701134
             11       0.678041       0.705737
           11.5       0.686025       0.710032
             12       0.693531       0.714027
           12.5       0.700553       0.717728
             13       0.707091       0.721142
           13.5       0.713142       0.724275
             14       0.718702       0.727131
           14.5       0.723769       0.729715
             15       0.728341       0.732031
           15.5       0.732411       0.734081
             16       0.735977       0.735868
           16.5       0.739205       0.737478
             17       0.741965       0.738849
           17.5       0.744211       0.739961
             18       0.745941       0.740815
           18.5       0.747151       0.741411
             19       0.747838       0.741749
           19.5       0.747994       0.741826
             20       0.747616        0.74164
           20.5         0.7467       0.741189
             21        0.74524       0.740469
           21.5       0.743227       0.739474
             22       0.740657         0.7382
           22.5       0.737523        0.73664
             23       0.733818       0.734787
           23.5       0.729534       0.732633
             24       0.724661       0.730168
           24.5       0.719193       0.727382
             25       0.713123       0.724265
           25.5       0.706441       0.720804
             26       0.699138       0.716985
           26.5       0.691204       0.712793
             27       0.697156       0.715942
           27.5       0.703233       0.719131
             28       0.708676       0.721965
           28.5       0.713499       0.724459
             29        0.71772       0.726628
           29.5       0.721353       0.728485
             30       0.724415       0.730043
           30.5       0.726918       0.731312
             31       0.728879       0.732303
           31.5       0.730313       0.733026
             32       0.731231       0.733488
           32.5       0.731649       0.733698
             33       0.731579       0.733663
           33.5        0.73103       0.733387
             34        0.73002       0.732878
           34.5       0.728555       0.732139
             35       0.726648       0.731175
           35.5       0.724307       0.729988
             36       0.721541       0.728581
           36.5       0.718359       0.726955
             37       0.714767       0.725112
           37.5       0.710776       0.723053
             38       0.706387       0.720776
           38.5        0.70161       0.718282
             39       0.696632       0.715666
           39.5       0.692704       0.713589
             40       0.688388       0.711294
           40.5         0.6837       0.708786
             41       0.678649       0.706066
           41.5       0.673251       0.703138
             42       0.667515       0.700003
           42.5       0.661449       0.696661
             43       0.655065       0.693114
           43.5       0.648371       0.689361
             44       0.641376       0.685402
           44.5       0.634084       0.681235
             45       0.626507        0.67686
           45.5       0.618648       0.672274
             46       0.610515       0.667476
           46.5       0.602166       0.662494
             47       0.593554       0.657294
           47.5        0.58468       0.651871
             48       0.575554       0.646223
           48.5       0.566175       0.640344
             49       0.556553       0.634231
           49.5       0.546688       0.627878
             50       0.536588       0.621281
           50.5       0.526253       0.614432
             51        0.51569       0.607327
           51.5       0.504901       0.599959
             52       0.493889       0.592319
           52.5       0.482658       0.584401
             53       0.471212       0.576197
           53.5       0.459555       0.567698
             54       0.447689       0.558896
           54.5       0.435618        0.54978
             55       0.423346        0.54034
           55.5       0.410878       0.530568
             56       0.398216        0.52045
           56.5       0.385367       0.509977
             57       0.372335       0.499135
           57.5       0.359124       0.487912
             58        0.34574       0.476294
           58.5        0.33219       0.464268
             59       0.318481       0.451819
           59.5       0.304619       0.438932
             60       0.290613        0.42559
           60.5       0.276472       0.411776
             61       0.262205       0.397473
           61.5       0.247823       0.382662
             62        0.23334       0.367324
           62.5       0.218767       0.351438
             63       0.204122       0.334983
           63.5       0.189421       0.317937
             64       0.174684       0.300275
           64.5       0.159933       0.281974
             65       0.145195       0.263008
           65.5       0.130498       0.243349
             66       0.115877       0.222969
           66.5       0.101373       0.201839
             67      0.0870349       0.179927
           67.5      0.0729202       0.157199
             68      0.0591043       0.133623
           68.5      0.0456816       0.109161
             69      0.0327822      0.0837751
           69.5      0.0205987      0.0574259
             70     0.00946657      0.0300712
           70.5    0.000344866     0.00166665
             71      0.0082797      0.0268556
           71.5      0.0192548      0.0543289
             72      0.0313386      0.0807917
           72.5      0.0441669       0.106286
             73      0.0575371       0.130853
           73.5       0.071313       0.154529
             74      0.0853969       0.177352
           74.5      0.0997133       0.199357
             75       0.114201       0.220576
           75.5        0.12881        0.24104
             76       0.143501       0.260781
           76.5       0.158235       0.279825
             77       0.172987       0.298202
           77.5       0.187726       0.315935
             78       0.202432       0.333051
           78.5       0.217085       0.349573
             79       0.231667       0.365524
           79.5       0.246161       0.380924
             80       0.260554       0.395794
           80.5       0.274836       0.410155
             81       0.288992       0.424024
           81.5       0.303014       0.437419
             82       0.316892       0.450358
           82.5        0.33062       0.462857
             83       0.344189       0.474931
           83.5       0.357592       0.486595
             84       0.370822       0.497862
           84.5       0.383875       0.508747
             85       0.396747       0.519263
           85.5        0.40943       0.529421
             86        0.42192       0.539232
           86.5       0.434214       0.548709
             87       0.446309       0.557862
           87.5       0.458199         0.5667
             88       0.469881       0.575234
           88.5       0.481351       0.583471
             89       0.492607       0.591422
           89.5       0.503644       0.599093
             90       0.514459       0.606492
           90.5       0.525048       0.613627
             91        0.53541       0.620505
           91.5       0.545536        0.62713
             92       0.555428       0.633511
           92.5       0.565078       0.639651
             93       0.574482       0.645555
           93.5       0.583642       0.651232
             94       0.592559       0.656689
           94.5       0.601217       0.661924
             95       0.609612        0.66694
           95.5       0.617738        0.67174
             96       0.625587       0.676326
           96.5       0.633155       0.680701
             97       0.640435       0.684867
           97.5        0.64742       0.688825
             98         0.6541       0.692575
           98.5       0.660466       0.696117
             99       0.666513       0.699453
           99.5       0.672383       0.702665
            100       0.678359       0.705909
          100.5       0.683996       0.708945
            101        0.68929       0.711775
          101.5       0.694232       0.714398
            102       0.698813       0.716814
          102.5       0.703024       0.719022
            103       0.706856        0.72102
          103.5       0.710301       0.722807
            104       0.713344       0.724379
          104.5       0.715974       0.725732
            105       0.718181       0.726864
          105.5       0.719948       0.727768
            106       0.721263       0.728439
          106.5       0.722112       0.728872
            107       0.722478       0.729058
          107.5       0.722342       0.728989
            108       0.721692       0.728658
          108.5       0.720508       0.728054
            109       0.718773       0.727167
          109.5       0.716946       0.726231
            110       0.722431       0.729034
          110.5       0.727369        0.73154
            111       0.731768       0.733758
          111.5       0.735631       0.735695
            112       0.738962       0.737357
          112.5       0.741768       0.738751
            113        0.74405       0.739881
          113.5       0.745811       0.740751
            114       0.747055       0.741364
          114.5       0.747783       0.741722
            115       0.747994       0.741826
          115.5       0.747691       0.741677
            116       0.746875       0.741275
          116.5       0.745542       0.740618
            117       0.743692       0.739704
          117.5       0.741326       0.738532
            118       0.738462       0.737108
          118.5       0.735079       0.735419
            119       0.731173       0.733459
          119.5       0.726743       0.731223
            120       0.721787       0.728706
          120.5       0.716299       0.725899
            121       0.710279       0.722796
          121.5       0.703725       0.719388
            122       0.696631       0.715665
          122.5       0.688996       0.711618
            123       0.680817       0.707236
          123.5       0.672093       0.702507
            124       0.662818       0.697418
          124.5       0.652992       0.691955
            125       0.642613       0.686105
          125.5       0.631677        0.67985
            126       0.620185       0.673175
          126.5       0.608136       0.666062
            127       0.595531       0.658493
          127.5       0.582367       0.650446
            128       0.568647       0.641901
          128.5       0.554373       0.632835
            129       0.539548       0.623224
          129.5       0.524175       0.613043
            130       0.538291         0.6224
          130.5        0.55319       0.632075
            131       0.567538       0.641203
          131.5       0.581333       0.649808
            132       0.594574       0.657913
          132.5       0.607256       0.665538
            133       0.619379       0.672703
          133.5       0.630945       0.679428
            134       0.641953        0.68573
          134.5       0.652404       0.691626
            135       0.662299       0.697131
          135.5       0.671642       0.702261
            136        0.68043       0.707027
          136.5       0.688669       0.711444
            137       0.696361       0.715523
          137.5       0.703507       0.719274
            138       0.710111       0.722709
          138.5       0.716176       0.725836
            139       0.721702       0.728663
          139.5       0.726695       0.731199
            140       0.731156        0.73345
          140.5       0.735085       0.735422
            141       0.738488       0.737121
          141.5       0.741374       0.738556
            142       0.743738       0.739727
          142.5       0.745578       0.740636
            143       0.746899       0.741287
          143.5       0.747697        0.74168
            144       0.747976       0.741817
          144.5       0.747732       0.741697
            145        0.74697       0.741322
          145.5       0.745686       0.740689
            146       0.743876       0.739795
          146.5       0.741544        0.73864
            147       0.738681       0.737217
          147.5       0.735289       0.735524
            148        0.73136       0.733553
          148.5       0.727881       0.731799
            149       0.728584       0.732154
          149.5       0.728737       0.732231
            150       0.728353       0.732037
          150.5       0.727452       0.731582
            151       0.726049       0.730872
          151.5       0.724157       0.729912
            152       0.721791       0.728708
          152.5       0.718962       0.727264
            153       0.715685       0.725584
          153.5        0.71197        0.72367
            154        0.70783       0.721526
          154.5       0.703275       0.719153
            155       0.698315       0.716552
          155.5       0.692957       0.713723
            156       0.687211       0.710666
          156.5       0.681087       0.707381
            157       0.674591       0.703867
          157.5       0.667863       0.700194
            158       0.660835       0.696321
          158.5       0.653454       0.692214
            159       0.645729        0.68787
          159.5       0.637666       0.683287
            160       0.629272       0.678462
          160.5       0.620554       0.673391
            161       0.611517        0.66807
          161.5       0.602165       0.662493
            162       0.592506       0.656657
          162.5       0.582545       0.650556
            163       0.572287       0.644184
          163.5       0.561734       0.637533
            164       0.550893       0.630597
          164.5       0.539768       0.623368
            165       0.528361       0.615837
          165.5       0.516679       0.607997
            166       0.504726       0.599838
          166.5       0.492503       0.591349
            167        0.48002       0.582522
          167.5       0.467278       0.573345
            168       0.454281       0.563805
          168.5       0.441036       0.553892
            169       0.427548       0.543592
          169.5       0.413822       0.532892
            170       0.399863       0.521777
          170.5       0.385678       0.510233
            171       0.371274       0.498243
          171.5        0.35666       0.485792
            172       0.341841       0.472861
          172.5       0.326828       0.459433
            173       0.311629       0.445488
          173.5       0.296257       0.431006
            174       0.280723       0.415966
          174.5       0.265039       0.400345
            175       0.249222       0.384121
          175.5       0.233287       0.367268
            176       0.217253        0.34976
          176.5       0.201142       0.331572
            177       0.184977       0.312673
          177.5       0.168786       0.293035
            178       0.152599       0.272625
          178.5       0.113245       0.219206
            179      0.0683922        0.14963
          179.5      0.0293466        0.07662
            180              0              0
